Temps(us),temps s,Consigne_Pos,Mesure_Pos,,,,prendre les donner a partir de 6.11 secondes svp la masse est deposer un peu apres
204,0.000204,243,122,,,,
532,0.000532,243,121,,,,
864,0.000864,243,121,,,,
1196,0.001196,243,121,,,,
1528,0.001528,243,120,,,,
1872,0.001872,243,120,,,,
2280,0.00228,243,120,,,,
2612,0.002612,243,120,,,,
2948,0.002948,243,119,,,,
3280,0.00328,243,119,,,,
3612,0.003612,243,119,,,,
3944,0.003944,243,119,,,,
4364,0.004364,243,119,,,,
4696,0.004696,243,119,,,,
5028,0.005028,243,119,,,,
5360,0.00536,243,119,,,,
5704,0.005704,243,119,,,,
6028,0.006028,243,119,,,,
6444,0.006444,243,119,,,,
6776,0.006776,243,119,,,,
7108,0.007108,243,120,,,,
7448,0.007448,243,120,,,,
7780,0.00778,243,120,,,,
8120,0.00812,243,120,,,,
8528,0.008528,243,121,,,,
8872,0.008872,243,121,,,,
9204,0.009204,243,121,,,,
9536,0.009536,243,122,,,,
9868,0.009868,243,122,,,,
10196,0.010196,243,122,,,,
10620,0.01062,243,123,,,,
10952,0.010952,243,123,,,,
11280,0.01128,243,123,,,,
11612,0.011612,243,124,,,,
11956,0.011956,243,125,,,,
12276,0.012276,243,125,,,,
12700,0.0127,243,126,,,,
13040,0.01304,243,126,,,,
13356,0.013356,243,127,,,,
13696,0.013696,243,128,,,,
14028,0.014028,243,128,,,,
14360,0.01436,243,129,,,,
14776,0.014776,243,129,,,,
15108,0.015108,243,130,,,,
15452,0.015452,243,130,,,,
15784,0.015784,243,131,,,,
16112,0.016112,243,132,,,,
16444,0.016444,243,132,,,,
16868,0.016868,243,133,,,,
17200,0.0172,243,134,,,,
17528,0.017528,243,134,,,,
17860,0.01786,243,135,,,,
18192,0.018192,243,136,,,,
18524,0.018524,243,137,,,,
18940,0.01894,243,138,,,,
19272,0.019272,243,138,,,,
19612,0.019612,243,140,,,,
19944,0.019944,243,140,,,,
20276,0.020276,243,141,,,,
20688,0.020688,243,142,,,,
21104,0.021104,243,144,,,,
21444,0.021444,243,144,,,,
21776,0.021776,243,145,,,,
22108,0.022108,243,147,,,,
22444,0.022444,243,148,,,,
22776,0.022776,243,149,,,,
23200,0.0232,243,150,,,,
23524,0.023524,243,151,,,,
23856,0.023856,243,152,,,,
24200,0.0242,243,153,,,,
24520,0.02452,243,154,,,,
24860,0.02486,243,155,,,,
25284,0.025284,243,157,,,,
25616,0.025616,243,158,,,,
25948,0.025948,243,159,,,,
26284,0.026284,243,160,,,,
26608,0.026608,243,162,,,,
26940,0.02694,243,162,,,,
27356,0.027356,243,164,,,,
27688,0.027688,243,165,,,,
28020,0.02802,243,167,,,,
28360,0.02836,243,168,,,,
28692,0.028692,243,169,,,,
29024,0.029024,243,170,,,,
29436,0.029436,243,172,,,,
29776,0.029776,243,173,,,,
30108,0.030108,243,174,,,,
30440,0.03044,243,175,,,,
30772,0.030772,243,176,,,,
31104,0.031104,243,177,,,,
31524,0.031524,243,178,,,,
31856,0.031856,243,180,,,,
32188,0.032188,243,181,,,,
32520,0.03252,243,182,,,,
32864,0.032864,243,183,,,,
33196,0.033196,243,184,,,,
33616,0.033616,243,186,,,,
33948,0.033948,243,187,,,,
34280,0.03428,243,188,,,,
34608,0.034608,243,189,,,,
34940,0.03494,243,190,,,,
35272,0.035272,243,192,,,,
35688,0.035688,243,193,,,,
36020,0.03602,243,194,,,,
36352,0.036352,243,195,,,,
36696,0.036696,243,197,,,,
37028,0.037028,243,198,,,,
37356,0.037356,243,199,,,,
37784,0.037784,243,200,,,,
38100,0.0381,243,201,,,,
38440,0.03844,243,203,,,,
38772,0.038772,243,203,,,,
39104,0.039104,243,205,,,,
39436,0.039436,243,206,,,,
39868,0.039868,243,207,,,,
40184,0.040184,243,208,,,,
40520,0.04052,243,209,,,,
40856,0.040856,243,210,,,,
41188,0.041188,243,211,,,,
41616,0.041616,243,212,,,,
42028,0.042028,243,214,,,,
42360,0.04236,243,215,,,,
42688,0.042688,243,215,,,,
43020,0.04302,243,216,,,,
43352,0.043352,243,217,,,,
43696,0.043696,243,218,,,,
44112,0.044112,243,219,,,,
44436,0.044436,243,220,,,,
44784,0.044784,243,221,,,,
45112,0.045112,243,221,,,,
45444,0.045444,243,222,,,,
45776,0.045776,243,223,,,,
46184,0.046184,243,223,,,,
46516,0.046516,243,224,,,,
46848,0.046848,243,225,,,,
47188,0.047188,243,225,,,,
47520,0.04752,243,226,,,,
47852,0.047852,243,226,,,,
48268,0.048268,243,227,,,,
48600,0.0486,243,227,,,,
48932,0.048932,243,228,,,,
49264,0.049264,243,228,,,,
49600,0.0496,243,228,,,,
49944,0.049944,243,228,,,,
50368,0.050368,243,229,,,,
50684,0.050684,243,229,,,,
51016,0.051016,243,229,,,,
51348,0.051348,243,229,,,,
51692,0.051692,243,230,,,,
52020,0.05202,243,230,,,,
52436,0.052436,243,230,,,,
52768,0.052768,243,230,,,,
53100,0.0531,243,230,,,,
53432,0.053432,243,230,,,,
53776,0.053776,243,230,,,,
54096,0.054096,243,230,,,,
54520,0.05452,243,230,,,,
54852,0.054852,243,230,,,,
55184,0.055184,243,230,,,,
55516,0.055516,243,230,,,,
55852,0.055852,243,230,,,,
56184,0.056184,243,230,,,,
56608,0.056608,243,230,,,,
56932,0.056932,243,230,,,,
57264,0.057264,243,230,,,,
57608,0.057608,243,230,,,,
57940,0.05794,243,230,,,,
58272,0.058272,243,230,,,,
58684,0.058684,243,229,,,,
59016,0.059016,243,229,,,,
59348,0.059348,243,229,,,,
59680,0.05968,243,229,,,,
60024,0.060024,243,229,,,,
60352,0.060352,243,228,,,,
60768,0.060768,243,228,,,,
61108,0.061108,243,227,,,,
61432,0.061432,243,227,,,,
61764,0.061764,243,226,,,,
62096,0.062096,243,226,,,,
62532,0.062532,243,225,,,,
62940,0.06294,243,224,,,,
63260,0.06326,243,224,,,,
63600,0.0636,243,223,,,,
63932,0.063932,243,222,,,,
64264,0.064264,243,222,,,,
64596,0.064596,243,221,,,,
65016,0.065016,243,220,,,,
65356,0.065356,243,219,,,,
65688,0.065688,243,218,,,,
66020,0.06602,243,217,,,,
66348,0.066348,243,216,,,,
66680,0.06668,243,216,,,,
67104,0.067104,243,215,,,,
67432,0.067432,243,213,,,,
67764,0.067764,243,213,,,,
68096,0.068096,243,212,,,,
68428,0.068428,243,211,,,,
68772,0.068772,243,210,,,,
69188,0.069188,243,209,,,,
69520,0.06952,243,208,,,,
69848,0.069848,243,206,,,,
70176,0.070176,243,206,,,,
70512,0.070512,243,205,,,,
70844,0.070844,243,204,,,,
71272,0.071272,243,203,,,,
71596,0.071596,243,202,,,,
71928,0.071928,243,201,,,,
72260,0.07226,243,201,,,,
72604,0.072604,243,200,,,,
72936,0.072936,243,198,,,,
73348,0.073348,243,198,,,,
73680,0.07368,243,197,,,,
74020,0.07402,243,196,,,,
74344,0.074344,243,195,,,,
74680,0.07468,243,194,,,,
75012,0.075012,243,193,,,,
75444,0.075444,243,193,,,,
75760,0.07576,243,192,,,,
76092,0.076092,243,191,,,,
76424,0.076424,243,190,,,,
76764,0.076764,243,189,,,,
77096,0.077096,243,189,,,,
77520,0.07752,243,188,,,,
77852,0.077852,243,187,,,,
78184,0.078184,243,186,,,,
78512,0.078512,243,185,,,,
78844,0.078844,243,185,,,,
79176,0.079176,243,184,,,,
79608,0.079608,243,182,,,,
79924,0.079924,243,182,,,,
80256,0.080256,243,181,,,,
80596,0.080596,243,180,,,,
80928,0.080928,243,179,,,,
81260,0.08126,243,179,,,,
81680,0.08168,243,178,,,,
82012,0.082012,243,177,,,,
82344,0.082344,243,176,,,,
82676,0.082676,243,175,,,,
83008,0.083008,243,175,,,,
83448,0.083448,243,174,,,,
83928,0.083928,243,172,,,,
84260,0.08426,243,171,,,,
84592,0.084592,243,171,,,,
84932,0.084932,243,170,,,,
85256,0.085256,243,169,,,,
85588,0.085588,243,169,,,,
86016,0.086016,243,168,,,,
86344,0.086344,243,167,,,,
86684,0.086684,243,166,,,,
87008,0.087008,243,166,,,,
87340,0.08734,243,165,,,,
87684,0.087684,243,165,,,,
88100,0.0881,243,164,,,,
88424,0.088424,243,163,,,,
88756,0.088756,243,163,,,,
89088,0.089088,243,162,,,,
89428,0.089428,243,161,,,,
89768,0.089768,243,161,,,,
90184,0.090184,243,161,,,,
90516,0.090516,243,161,,,,
90844,0.090844,243,160,,,,
91176,0.091176,243,160,,,,
91508,0.091508,243,160,,,,
91840,0.09184,243,159,,,,
92256,0.092256,243,159,,,,
92588,0.092588,243,159,,,,
92920,0.09292,243,159,,,,
93260,0.09326,243,159,,,,
93592,0.093592,243,158,,,,
93932,0.093932,243,158,,,,
94344,0.094344,243,158,,,,
94676,0.094676,243,158,,,,
95008,0.095008,243,158,,,,
95340,0.09534,243,158,,,,
95672,0.095672,243,158,,,,
96004,0.096004,243,157,,,,
96424,0.096424,243,157,,,,
96756,0.096756,243,158,,,,
97088,0.097088,243,158,,,,
97420,0.09742,243,158,,,,
97764,0.097764,243,158,,,,
98092,0.098092,243,158,,,,
98516,0.098516,243,158,,,,
98840,0.09884,243,158,,,,
99172,0.099172,243,158,,,,
99504,0.099504,243,158,,,,
99836,0.099836,243,158,,,,
100168,0.100168,243,158,,,,
100588,0.100588,243,158,,,,
100920,0.10092,243,159,,,,
101256,0.101256,243,159,,,,
101596,0.101596,243,159,,,,
101920,0.10192,243,159,,,,
102256,0.102256,243,160,,,,
102672,0.102672,243,160,,,,
103004,0.103004,243,161,,,,
103336,0.103336,243,161,,,,
103680,0.10368,243,161,,,,
104012,0.104012,243,161,,,,
104448,0.104448,243,162,,,,
104856,0.104856,243,163,,,,
105172,0.105172,243,163,,,,
105504,0.105504,243,164,,,,
105836,0.105836,243,165,,,,
106168,0.106168,243,165,,,,
106512,0.106512,243,165,,,,
106928,0.106928,243,166,,,,
107256,0.107256,243,166,,,,
107588,0.107588,243,167,,,,
107920,0.10792,243,168,,,,
108252,0.108252,243,169,,,,
108584,0.108584,243,169,,,,
109004,0.109004,243,170,,,,
109336,0.109336,243,171,,,,
109668,0.109668,243,172,,,,
110000,0.11,243,173,,,,
110332,0.110332,243,173,,,,
110672,0.110672,243,174,,,,
111096,0.111096,243,175,,,,
111428,0.111428,243,176,,,,
111760,0.11176,243,177,,,,
112092,0.112092,243,178,,,,
112420,0.11242,243,179,,,,
112752,0.112752,243,180,,,,
113176,0.113176,243,181,,,,
113504,0.113504,243,182,,,,
113836,0.113836,243,183,,,,
114168,0.114168,243,184,,,,
114500,0.1145,243,185,,,,
114832,0.114832,243,186,,,,
115252,0.115252,243,187,,,,
115584,0.115584,243,189,,,,
115916,0.115916,243,189,,,,
116260,0.11626,243,191,,,,
116588,0.116588,243,191,,,,
116920,0.11692,243,193,,,,
117344,0.117344,243,194,,,,
117676,0.117676,243,196,,,,
118008,0.118008,243,197,,,,
118340,0.11834,243,198,,,,
118664,0.118664,243,199,,,,
119004,0.119004,243,201,,,,
119428,0.119428,243,203,,,,
119748,0.119748,243,204,,,,
120080,0.12008,243,205,,,,
120420,0.12042,243,207,,,,
120748,0.120748,243,208,,,,
121092,0.121092,243,210,,,,
121520,0.12152,243,212,,,,
121836,0.121836,243,213,,,,
122168,0.122168,243,215,,,,
122500,0.1225,243,216,,,,
122832,0.122832,243,218,,,,
123164,0.123164,243,219,,,,
123584,0.123584,243,221,,,,
123916,0.123916,243,222,,,,
124248,0.124248,243,224,,,,
124592,0.124592,243,226,,,,
124924,0.124924,243,227,,,,
125360,0.12536,243,229,,,,
125828,0.125828,243,232,,,,
126168,0.126168,243,233,,,,
126500,0.1265,243,235,,,,
126832,0.126832,243,236,,,,
127164,0.127164,243,238,,,,
127508,0.127508,243,239,,,,
127924,0.127924,243,241,,,,
128256,0.128256,243,242,,,,
128584,0.128584,243,244,,,,
128916,0.128916,243,245,,,,
129244,0.129244,243,247,,,,
129584,0.129584,243,248,,,,
130004,0.130004,243,250,,,,
130332,0.130332,243,251,,,,
130660,0.13066,243,253,,,,
131000,0.131,243,254,,,,
131332,0.131332,243,256,,,,
131664,0.131664,243,257,,,,
132088,0.132088,243,259,,,,
132412,0.132412,243,260,,,,
132744,0.132744,243,261,,,,
133076,0.133076,243,263,,,,
133416,0.133416,243,264,,,,
133748,0.133748,243,265,,,,
134164,0.134164,243,267,,,,
134496,0.134496,243,269,,,,
134840,0.13484,243,270,,,,
135172,0.135172,243,272,,,,
135504,0.135504,243,273,,,,
135844,0.135844,243,274,,,,
136256,0.136256,243,277,,,,
136588,0.136588,243,278,,,,
136920,0.13692,243,279,,,,
137248,0.137248,243,280,,,,
137580,0.13758,243,282,,,,
137912,0.137912,243,284,,,,
138332,0.138332,243,286,,,,
138664,0.138664,243,287,,,,
138996,0.138996,243,288,,,,
139328,0.139328,243,290,,,,
139660,0.13966,243,291,,,,
140004,0.140004,243,293,,,,
140412,0.140412,243,295,,,,
140744,0.140744,243,296,,,,
141076,0.141076,243,297,,,,
141408,0.141408,243,298,,,,
141748,0.141748,243,300,,,,
142080,0.14208,243,301,,,,
142492,0.142492,243,303,,,,
142824,0.142824,243,304,,,,
143164,0.143164,243,305,,,,
143496,0.143496,243,306,,,,
143828,0.143828,243,307,,,,
144160,0.14416,243,308,,,,
144580,0.14458,243,309,,,,
144912,0.144912,243,310,,,,
145252,0.145252,243,311,,,,
145576,0.145576,243,311,,,,
145912,0.145912,243,312,,,,
146356,0.146356,243,313,,,,
146764,0.146764,243,314,,,,
147084,0.147084,243,314,,,,
147408,0.147408,243,315,,,,
147744,0.147744,243,315,,,,
148080,0.14808,243,315,,,,
148412,0.148412,243,316,,,,
148828,0.148828,243,316,,,,
149160,0.14916,243,317,,,,
149492,0.149492,243,317,,,,
149828,0.149828,243,317,,,,
150160,0.15016,243,317,,,,
150500,0.1505,243,317,,,,
150908,0.150908,243,317,,,,
151240,0.15124,243,318,,,,
151572,0.151572,243,317,,,,
151912,0.151912,243,317,,,,
152244,0.152244,243,317,,,,
152576,0.152576,243,317,,,,
153000,0.153,243,317,,,,
153332,0.153332,243,317,,,,
153660,0.15366,243,317,,,,
153988,0.153988,243,317,,,,
154324,0.154324,243,317,,,,
154656,0.154656,243,317,,,,
155084,0.155084,243,317,,,,
155416,0.155416,243,317,,,,
155748,0.155748,243,316,,,,
156076,0.156076,243,316,,,,
156408,0.156408,243,316,,,,
156740,0.15674,243,316,,,,
157172,0.157172,243,316,,,,
157488,0.157488,243,316,,,,
157820,0.15782,243,315,,,,
158160,0.15816,243,315,,,,
158492,0.158492,243,315,,,,
158824,0.158824,243,314,,,,
159240,0.15924,243,314,,,,
159572,0.159572,243,313,,,,
159916,0.159916,243,313,,,,
160248,0.160248,243,312,,,,
160576,0.160576,243,312,,,,
160908,0.160908,243,311,,,,
161324,0.161324,243,311,,,,
161656,0.161656,243,310,,,,
161988,0.161988,243,309,,,,
162324,0.162324,243,308,,,,
162664,0.162664,243,308,,,,
162996,0.162996,243,307,,,,
163404,0.163404,243,306,,,,
163748,0.163748,243,305,,,,
164080,0.16408,243,304,,,,
164412,0.164412,243,303,,,,
164736,0.164736,243,302,,,,
165068,0.165068,243,301,,,,
165492,0.165492,243,300,,,,
165824,0.165824,243,298,,,,
166156,0.166156,243,297,,,,
166488,0.166488,243,296,,,,
166820,0.16682,243,295,,,,
167264,0.167264,243,294,,,,
167740,0.16774,243,292,,,,
168072,0.168072,243,291,,,,
168404,0.168404,243,290,,,,
168736,0.168736,243,289,,,,
169068,0.169068,243,287,,,,
169408,0.169408,243,286,,,,
169832,0.169832,243,285,,,,
170164,0.170164,243,284,,,,
170496,0.170496,243,282,,,,
170824,0.170824,243,281,,,,
171156,0.171156,243,280,,,,
171488,0.171488,243,279,,,,
171916,0.171916,243,278,,,,
172240,0.17224,243,277,,,,
172572,0.172572,243,275,,,,
172904,0.172904,243,274,,,,
173236,0.173236,243,274,,,,
173568,0.173568,243,272,,,,
173996,0.173996,243,271,,,,
174328,0.174328,243,270,,,,
174652,0.174652,243,269,,,,
174984,0.174984,243,268,,,,
175316,0.175316,243,267,,,,
175656,0.175656,243,266,,,,
176080,0.17608,243,264,,,,
176412,0.176412,243,263,,,,
176744,0.176744,243,263,,,,
177072,0.177072,243,262,,,,
177404,0.177404,243,260,,,,
177736,0.177736,243,259,,,,
178156,0.178156,243,258,,,,
178488,0.178488,243,257,,,,
178820,0.17882,243,256,,,,
179160,0.17916,243,255,,,,
179484,0.179484,243,254,,,,
179820,0.17982,243,253,,,,
180236,0.180236,243,251,,,,
180568,0.180568,243,250,,,,
180908,0.180908,243,249,,,,
181232,0.181232,243,248,,,,
181564,0.181564,243,247,,,,
181904,0.181904,243,246,,,,
182332,0.182332,243,245,,,,
182648,0.182648,243,244,,,,
182988,0.182988,243,243,,,,
183320,0.18332,243,242,,,,
183652,0.183652,243,241,,,,
183984,0.183984,243,240,,,,
184404,0.184404,243,239,,,,
184736,0.184736,243,238,,,,
185068,0.185068,243,237,,,,
185400,0.1854,243,236,,,,
185732,0.185732,243,235,,,,
186064,0.186064,243,234,,,,
186484,0.186484,243,233,,,,
186816,0.186816,243,233,,,,
187148,0.187148,243,232,,,,
187480,0.18748,243,231,,,,
187820,0.18782,243,230,,,,
188256,0.188256,243,230,,,,
188660,0.18866,243,229,,,,
188984,0.188984,243,228,,,,
189312,0.189312,243,228,,,,
189652,0.189652,243,227,,,,
189984,0.189984,243,227,,,,
190324,0.190324,243,226,,,,
190732,0.190732,243,226,,,,
191064,0.191064,243,225,,,,
191408,0.191408,243,225,,,,
191740,0.19174,243,224,,,,
192072,0.192072,243,224,,,,
192396,0.192396,243,223,,,,
192812,0.192812,243,223,,,,
193152,0.193152,243,223,,,,
193484,0.193484,243,222,,,,
193816,0.193816,243,222,,,,
194148,0.194148,243,222,,,,
194480,0.19448,243,222,,,,
194900,0.1949,243,221,,,,
195240,0.19524,243,221,,,,
195564,0.195564,243,221,,,,
195896,0.195896,243,220,,,,
196228,0.196228,243,220,,,,
196564,0.196564,243,220,,,,
196984,0.196984,243,220,,,,
197316,0.197316,243,219,,,,
197648,0.197648,243,219,,,,
197980,0.19798,243,219,,,,
198320,0.19832,243,219,,,,
198644,0.198644,243,219,,,,
199072,0.199072,243,219,,,,
199400,0.1994,243,219,,,,
199732,0.199732,243,218,,,,
200064,0.200064,243,219,,,,
200396,0.200396,243,219,,,,
200728,0.200728,243,219,,,,
201156,0.201156,243,219,,,,
201488,0.201488,243,219,,,,
201820,0.20182,243,219,,,,
202148,0.202148,243,219,,,,
202480,0.20248,243,219,,,,
202812,0.202812,243,219,,,,
203232,0.203232,243,220,,,,
203572,0.203572,243,220,,,,
203904,0.203904,243,221,,,,
204236,0.204236,243,221,,,,
204564,0.204564,243,221,,,,
204896,0.204896,243,221,,,,
205308,0.205308,243,222,,,,
205648,0.205648,243,223,,,,
205980,0.20598,243,223,,,,
206312,0.206312,243,223,,,,
206644,0.206644,243,224,,,,
206976,0.206976,243,224,,,,
207392,0.207392,243,225,,,,
207732,0.207732,243,226,,,,
208064,0.208064,243,226,,,,
208396,0.208396,243,227,,,,
208728,0.208728,243,227,,,,
209164,0.209164,243,228,,,,
209576,0.209576,243,229,,,,
209896,0.209896,243,229,,,,
210236,0.210236,243,230,,,,
210560,0.21056,243,231,,,,
210896,0.210896,243,232,,,,
211228,0.211228,243,232,,,,
211644,0.211644,243,233,,,,
211976,0.211976,243,234,,,,
212308,0.212308,243,235,,,,
212648,0.212648,243,235,,,,
212980,0.21298,243,236,,,,
213312,0.213312,243,237,,,,
213724,0.213724,243,238,,,,
214056,0.214056,243,238,,,,
214396,0.214396,243,239,,,,
214728,0.214728,243,240,,,,
215060,0.21506,243,241,,,,
215392,0.215392,243,242,,,,
215812,0.215812,243,243,,,,
216144,0.216144,243,243,,,,
216476,0.216476,243,245,,,,
216816,0.216816,243,245,,,,
217140,0.21714,243,246,,,,
217476,0.217476,243,247,,,,
217900,0.2179,243,248,,,,
218228,0.218228,243,249,,,,
218560,0.21856,243,250,,,,
218892,0.218892,243,251,,,,
219224,0.219224,243,252,,,,
219560,0.21956,243,253,,,,
219988,0.219988,243,255,,,,
220312,0.220312,243,256,,,,
220644,0.220644,243,257,,,,
220976,0.220976,243,258,,,,
221308,0.221308,243,259,,,,
221640,0.22164,243,260,,,,
222060,0.22206,243,262,,,,
222392,0.222392,243,262,,,,
222724,0.222724,243,264,,,,
223056,0.223056,243,265,,,,
223388,0.223388,243,266,,,,
223732,0.223732,243,268,,,,
224152,0.224152,243,269,,,,
224484,0.224484,243,270,,,,
224816,0.224816,243,271,,,,
225148,0.225148,243,272,,,,
225480,0.22548,243,274,,,,
225804,0.225804,243,275,,,,
226232,0.226232,243,276,,,,
226556,0.226556,243,277,,,,
226888,0.226888,243,279,,,,
227232,0.227232,243,280,,,,
227564,0.227564,243,281,,,,
227888,0.227888,243,282,,,,
228320,0.22832,243,284,,,,
228636,0.228636,243,285,,,,
228976,0.228976,243,286,,,,
229308,0.229308,243,287,,,,
229636,0.229636,243,288,,,,
230084,0.230084,243,289,,,,
230556,0.230556,243,290,,,,
230888,0.230888,243,291,,,,
231220,0.23122,243,293,,,,
231552,0.231552,243,294,,,,
231892,0.231892,243,294,,,,
232224,0.232224,243,295,,,,
232636,0.232636,243,296,,,,
232968,0.232968,243,297,,,,
233308,0.233308,243,298,,,,
233640,0.23364,243,298,,,,
233972,0.233972,243,299,,,,
234304,0.234304,243,301,,,,
234724,0.234724,243,302,,,,
235056,0.235056,243,303,,,,
235388,0.235388,243,303,,,,
235720,0.23572,243,304,,,,
236052,0.236052,243,305,,,,
236384,0.236384,243,306,,,,
236812,0.236812,243,307,,,,
237144,0.237144,243,307,,,,
237468,0.237468,243,308,,,,
237800,0.2378,243,309,,,,
238140,0.23814,243,310,,,,
238472,0.238472,243,310,,,,
238884,0.238884,243,311,,,,
239216,0.239216,243,312,,,,
239552,0.239552,243,313,,,,
239896,0.239896,243,313,,,,
240228,0.240228,243,314,,,,
240552,0.240552,243,314,,,,
240972,0.240972,243,315,,,,
241312,0.241312,243,316,,,,
241644,0.241644,243,316,,,,
241976,0.241976,243,317,,,,
242300,0.2423,243,317,,,,
242636,0.242636,243,318,,,,
243060,0.24306,243,318,,,,
243388,0.243388,243,319,,,,
243720,0.24372,243,319,,,,
244052,0.244052,243,319,,,,
244396,0.244396,243,320,,,,
244728,0.244728,243,320,,,,
245136,0.245136,243,320,,,,
245468,0.245468,243,320,,,,
245800,0.2458,243,320,,,,
246132,0.246132,243,320,,,,
246472,0.246472,243,320,,,,
246804,0.246804,243,320,,,,
247216,0.247216,243,320,,,,
247552,0.247552,243,320,,,,
247884,0.247884,243,320,,,,
248216,0.248216,243,320,,,,
248560,0.24856,243,320,,,,
248892,0.248892,243,319,,,,
249312,0.249312,243,319,,,,
249644,0.249644,243,319,,,,
249976,0.249976,243,318,,,,
250308,0.250308,243,318,,,,
250636,0.250636,243,318,,,,
251076,0.251076,243,318,,,,
251480,0.25148,243,317,,,,
251800,0.2518,243,316,,,,
252136,0.252136,243,316,,,,
252468,0.252468,243,316,,,,
252800,0.2528,243,315,,,,
253132,0.253132,243,315,,,,
253552,0.253552,243,314,,,,
