Temps(us),Temps(s),Consigne,A7_Bits
392,0.000392,512,509
808,0.000808,512,510
1224,0.001224,512,509
1640,0.00164,512,510
2060,0.00206,512,510
2568,0.002568,512,509
2976,0.002976,512,509
3392,0.003392,512,510
3808,0.003808,512,510
4224,0.004224,512,511
4644,0.004644,512,511
5156,0.005156,512,511
5556,0.005556,512,511
5972,0.005972,512,511
6392,0.006392,512,511
6808,0.006808,512,511
7224,0.007224,512,511
7740,0.00774,512,511
8140,0.00814,512,511
8556,0.008556,512,511
8972,0.008972,512,511
9388,0.009388,512,512
9808,0.009808,512,512
10312,0.010312,512,512
10724,0.010724,512,511
11140,0.01114,512,514
11556,0.011556,512,511
11972,0.011972,512,515
12388,0.012388,512,511
12900,0.0129,512,515
13304,0.013304,512,512
13720,0.01372,512,511
14140,0.01414,512,510
14556,0.014556,512,510
14972,0.014972,512,510
15488,0.015488,512,510
15888,0.015888,512,510
16304,0.016304,512,510
16720,0.01672,512,511
17136,0.017136,512,511
17556,0.017556,512,512
18060,0.01806,512,512
18472,0.018472,512,512
18888,0.018888,512,510
19304,0.019304,512,512
19720,0.01972,512,510
20136,0.020136,512,511
20652,0.020652,512,510
21052,0.021052,512,512
21468,0.021468,512,512
21888,0.021888,512,512
22304,0.022304,512,512
22720,0.02272,512,512
23240,0.02324,512,513
23636,0.023636,512,513
24052,0.024052,512,514
24468,0.024468,512,513
24884,0.024884,512,513
25304,0.025304,512,512
25812,0.025812,512,512
26220,0.02622,512,512
26636,0.026636,512,513
27052,0.027052,512,512
27468,0.027468,512,513
27884,0.027884,512,512
28384,0.028384,512,512
28800,0.0288,512,513
29220,0.02922,512,511
29636,0.029636,512,515
30052,0.030052,512,512
30468,0.030468,512,515
30984,0.030984,512,511
31384,0.031384,512,512
31800,0.0318,512,512
32216,0.032216,512,512
32636,0.032636,512,512
33052,0.033052,512,513
33572,0.033572,512,513
33968,0.033968,512,513
34384,0.034384,512,513
34800,0.0348,512,513
35216,0.035216,512,513
35632,0.035632,512,512
36148,0.036148,512,513
36548,0.036548,512,515
36964,0.036964,512,511
37384,0.037384,512,510
37800,0.0378,512,511
38216,0.038216,512,510
38724,0.038724,512,512
39132,0.039132,512,512
39548,0.039548,512,512
39964,0.039964,512,511
40380,0.04038,512,511
40800,0.0408,512,512
41300,0.0413,512,512
41716,0.041716,512,512
42132,0.042132,512,511
42548,0.042548,512,511
42964,0.042964,512,511
43380,0.04338,512,511
43892,0.043892,512,511
44296,0.044296,512,510
44712,0.044712,512,512
45132,0.045132,512,512
45548,0.045548,512,512
45964,0.045964,512,512
46472,0.046472,512,512
46880,0.04688,512,512
47296,0.047296,512,513
47712,0.047712,512,512
48128,0.048128,512,512
48548,0.048548,512,511
49060,0.04906,512,515
49464,0.049464,512,512
49880,0.04988,512,512
50296,0.050296,512,511
50712,0.050712,512,511
51128,0.051128,512,511
51644,0.051644,512,510
52044,0.052044,512,510
52460,0.05246,512,511
52880,0.05288,512,511
53296,0.053296,512,512
53712,0.053712,512,512
54216,0.054216,512,512
54628,0.054628,512,510
55044,0.055044,512,515
55460,0.05546,512,510
55876,0.055876,512,515
56296,0.056296,512,512
56812,0.056812,512,510
57212,0.057212,512,512
57628,0.057628,512,512
58044,0.058044,512,513
58460,0.05846,512,513
58876,0.058876,512,513
59396,0.059396,512,513
59792,0.059792,512,513
60212,0.060212,512,512
60628,0.060628,512,512
61044,0.061044,512,512
61460,0.06146,512,512
61976,0.061976,512,513
62376,0.062376,512,513
62792,0.062792,512,511
63208,0.063208,512,512
63624,0.063624,512,510
64044,0.064044,512,512
64552,0.064552,512,512
64960,0.06496,512,512
65376,0.065376,512,512
65792,0.065792,512,511
66208,0.066208,512,511
66624,0.066624,512,511
67144,0.067144,512,510
67540,0.06754,512,512
67960,0.06796,512,512
68376,0.068376,512,512
68792,0.068792,512,513
69216,0.069216,512,513
69728,0.069728,512,513
70124,0.070124,512,513
70540,0.07054,512,513
70956,0.070956,512,513
71376,0.071376,512,512
71792,0.071792,512,512
72300,0.0723,512,512
72708,0.072708,512,515
73124,0.073124,512,511
73540,0.07354,512,515
73956,0.073956,512,512
74372,0.074372,512,515
74876,0.074876,512,512
75288,0.075288,512,513
75708,0.075708,512,513
76124,0.076124,512,513
76540,0.07654,512,512
76956,0.076956,512,512
77456,0.077456,512,512
77872,0.077872,512,512
78288,0.078288,512,512
78704,0.078704,512,512
79124,0.079124,512,512
79540,0.07954,512,513
80040,0.08004,512,512
80456,0.080456,512,511
80872,0.080872,512,512
81288,0.081288,512,511
81704,0.081704,512,513
82120,0.08212,512,511
82632,0.082632,512,513
83036,0.083036,512,512
83456,0.083456,512,512
83872,0.083872,512,512
84288,0.084288,512,512
84704,0.084704,512,512
85212,0.085212,512,512
85620,0.08562,512,512
86036,0.086036,512,512
86452,0.086452,512,512
86872,0.086872,512,512
87288,0.087288,512,512
87788,0.087788,512,512
88204,0.088204,512,512
88620,0.08862,512,512
89036,0.089036,512,512
89452,0.089452,512,511
89868,0.089868,512,512
90368,0.090368,512,512
90784,0.090784,512,512
91204,0.091204,512,515
91620,0.09162,512,511
92036,0.092036,512,514
92452,0.092452,512,511
92968,0.092968,512,515
93368,0.093368,512,512
93792,0.093792,512,511
94200,0.0942,512,511
94620,0.09462,512,510
95036,0.095036,512,509
95552,0.095552,512,509
95952,0.095952,512,509
96368,0.096368,512,510
96784,0.096784,512,511
97200,0.0972,512,511
97616,0.097616,512,511
98124,0.098124,512,512
98532,0.098532,512,511
98952,0.098952,512,511
99368,0.099368,512,512
99784,0.099784,512,510
100200,0.1002,512,511
100716,0.100716,512,510
101116,0.101116,512,511
101532,0.101532,512,512
101948,0.101948,512,512
102368,0.102368,512,513
102784,0.102784,512,513
103304,0.103304,512,513
103700,0.1037,512,513
104116,0.104116,512,513
104532,0.104532,512,513
104948,0.104948,512,513
105368,0.105368,512,513
105880,0.10588,512,513
106284,0.106284,512,512
106700,0.1067,512,512
107116,0.107116,512,512
107532,0.107532,512,512
107948,0.107948,512,512
108456,0.108456,512,512
108864,0.108864,512,512
109280,0.10928,512,512
109696,0.109696,512,511
110116,0.110116,512,511
110532,0.110532,512,515
111044,0.111044,512,511
111448,0.111448,512,512
111864,0.111864,512,512
112280,0.11228,512,512
112696,0.112696,512,512
113112,0.113112,512,512
113624,0.113624,512,512
114032,0.114032,512,513
114448,0.114448,512,513
114864,0.114864,512,512
115280,0.11528,512,512
115696,0.115696,512,512
116208,0.116208,512,513
116612,0.116612,512,516
117028,0.117028,512,511
117444,0.117444,512,515
117864,0.117864,512,512
118280,0.11828,512,510
118788,0.118788,512,512
119196,0.119196,512,512
119612,0.119612,512,512
120028,0.120028,512,512
120444,0.120444,512,512
120860,0.12086,512,512
121364,0.121364,512,512
121780,0.12178,512,512
122196,0.122196,512,512
122612,0.122612,512,512
123028,0.123028,512,512
123444,0.123444,512,511
123956,0.123956,512,511
124360,0.12436,512,510
124776,0.124776,512,512
125192,0.125192,512,511
125612,0.125612,512,513
126028,0.126028,512,512
126536,0.126536,512,512
126944,0.126944,512,512
127360,0.12736,512,512
127776,0.127776,512,513
128192,0.128192,512,513
128608,0.128608,512,513
129124,0.129124,512,515
129528,0.129528,512,512
129944,0.129944,512,511
130360,0.13036,512,511
130776,0.130776,512,511
131192,0.131192,512,511
131708,0.131708,512,511
132108,0.132108,512,511
132524,0.132524,512,510
132940,0.13294,512,511
133360,0.13336,512,511
133776,0.133776,512,511
134292,0.134292,512,511
134692,0.134692,512,511
135108,0.135108,512,514
135524,0.135524,512,510
135940,0.13594,512,514
136356,0.136356,512,510
136880,0.13688,512,510
137276,0.137276,512,512
137692,0.137692,512,512
138108,0.138108,512,512
138524,0.138524,512,513
138940,0.13894,512,513
139460,0.13946,512,513
139856,0.139856,512,513
140272,0.140272,512,513
140688,0.140688,512,513
141108,0.141108,512,512
141524,0.141524,512,512
142032,0.142032,512,512
142440,0.14244,512,513
142856,0.142856,512,511
143272,0.143272,512,513
143688,0.143688,512,511
144104,0.144104,512,512
144620,0.14462,512,513
145024,0.145024,512,513
145440,0.14544,512,512
145856,0.145856,512,512
146272,0.146272,512,512
146688,0.146688,512,511
147208,0.147208,512,511
147604,0.147604,512,511
148020,0.14802,512,512
148440,0.14844,512,512
148856,0.148856,512,512
149272,0.149272,512,512
149788,0.149788,512,513
150188,0.150188,512,512
150604,0.150604,512,513
151020,0.15102,512,512
151436,0.151436,512,513
151856,0.151856,512,512
152364,0.152364,512,512
152772,0.152772,512,514
153188,0.153188,512,510
153604,0.153604,512,514
154020,0.15402,512,511
154436,0.154436,512,515
154948,0.154948,512,511
155352,0.155352,512,512
155768,0.155768,512,512
156188,0.156188,512,512
156604,0.156604,512,512
157020,0.15702,512,513
157536,0.157536,512,513
157936,0.157936,512,512
158352,0.158352,512,512
158768,0.158768,512,512
159184,0.159184,512,512
159600,0.1596,512,512
160112,0.160112,512,512
160520,0.16052,512,510
160936,0.160936,512,512
161352,0.161352,512,510
161768,0.161768,512,512
162184,0.162184,512,510
162684,0.162684,512,512
163100,0.1631,512,512
163516,0.163516,512,512
163936,0.163936,512,511
164352,0.164352,512,511
164768,0.164768,512,511
165280,0.16528,512,511
165684,0.165684,512,512
166100,0.1661,512,512
166516,0.166516,512,512
166932,0.166932,512,512
167348,0.167348,512,512
167860,0.16786,512,512
168268,0.168268,512,513
168684,0.168684,512,513
169100,0.1691,512,513
169516,0.169516,512,512
169932,0.169932,512,512
170432,0.170432,512,512
170848,0.170848,512,512
171264,0.171264,512,512
171684,0.171684,512,512
172100,0.1721,512,516
172516,0.172516,512,511
173028,0.173028,512,515
173432,0.173432,512,512
173848,0.173848,512,512
174264,0.174264,512,512
174688,0.174688,512,512
175096,0.175096,512,511
175616,0.175616,512,510
176016,0.176016,512,510
176432,0.176432,512,510
176848,0.176848,512,511
177264,0.177264,512,512
177680,0.17768,512,512
178184,0.178184,512,512
178596,0.178596,512,511
179012,0.179012,512,515
179432,0.179432,512,512
179848,0.179848,512,511
180264,0.180264,512,512
180780,0.18078,512,510
181180,0.18118,512,512
181596,0.181596,512,512
182012,0.182012,512,512
182428,0.182428,512,512
182848,0.182848,512,513
183368,0.183368,512,513
183764,0.183764,512,513
184180,0.18418,512,513
184596,0.184596,512,513
185012,0.185012,512,513
185428,0.185428,512,513
185948,0.185948,512,513
186344,0.186344,512,513
186764,0.186764,512,513
187180,0.18718,512,512
187596,0.187596,512,512
188012,0.188012,512,511
188520,0.18852,512,512
188928,0.188928,512,512
189344,0.189344,512,512
189760,0.18976,512,512
190176,0.190176,512,512
190596,0.190596,512,515
191112,0.191112,512,511
191512,0.191512,512,512
191928,0.191928,512,512
192344,0.192344,512,512
192760,0.19276,512,512
193176,0.193176,512,512
193684,0.193684,512,512
194092,0.194092,512,512
194508,0.194508,512,513
194928,0.194928,512,513
195344,0.195344,512,513
195760,0.19576,512,512
196260,0.19626,512,512
196676,0.196676,512,515
197092,0.197092,512,512
197508,0.197508,512,515
197928,0.197928,512,513
198344,0.198344,512,511
198844,0.198844,512,512
199264,0.199264,512,512
199676,0.199676,512,512
200092,0.200092,512,513
200508,0.200508,512,513
200924,0.200924,512,513
201436,0.201436,512,513
201840,0.20184,512,512
202256,0.202256,512,512
202676,0.202676,512,512
203092,0.203092,512,512
203508,0.203508,512,512
204016,0.204016,512,512
204424,0.204424,512,510
204840,0.20484,512,511
205256,0.205256,512,510
205676,0.205676,512,512
206092,0.206092,512,512
206592,0.206592,512,512
207008,0.207008,512,512
207424,0.207424,512,512
207840,0.20784,512,512
208256,0.208256,512,512
208672,0.208672,512,512
209172,0.209172,512,512
209588,0.209588,512,512
210008,0.210008,512,512
210424,0.210424,512,512
210840,0.21084,512,511
211256,0.211256,512,512
211756,0.211756,512,512
212172,0.212172,512,512
212588,0.212588,512,512
213004,0.213004,512,512
213420,0.21342,512,512
213840,0.21384,512,512
214340,0.21434,512,512
214756,0.214756,512,511
215172,0.215172,512,515
215588,0.215588,512,510
216004,0.216004,512,514
216420,0.21642,512,510
216932,0.216932,512,514
217336,0.217336,512,511
217756,0.217756,512,511
218172,0.218172,512,511
218588,0.218588,512,511
219004,0.219004,512,510
219520,0.21952,512,510
219920,0.21992,512,510
220336,0.220336,512,511
220752,0.220752,512,511
221172,0.221172,512,512
221588,0.221588,512,512
222092,0.222092,512,512
222504,0.222504,512,512
222920,0.22292,512,510
223336,0.223336,512,512
223752,0.223752,512,511
224168,0.224168,512,512
224684,0.224684,512,510
225084,0.225084,512,512
225504,0.225504,512,512
225920,0.22592,512,513
226336,0.226336,512,513
226752,0.226752,512,513
227272,0.227272,512,513
227668,0.227668,512,513
228084,0.228084,512,513
228500,0.2285,512,513
228916,0.228916,512,513
229336,0.229336,512,513
229852,0.229852,512,513
230252,0.230252,512,513
230668,0.230668,512,512
231084,0.231084,512,512
231500,0.2315,512,513
231916,0.231916,512,512
232424,0.232424,512,512
232832,0.232832,512,512
233252,0.233252,512,510
233668,0.233668,512,514
234084,0.234084,512,510
234500,0.2345,512,514
235016,0.235016,512,510
235416,0.235416,512,512
235832,0.235832,512,512
236248,0.236248,512,512
236664,0.236664,512,513
237084,0.237084,512,513
237604,0.237604,512,513
238000,0.238,512,513
238416,0.238416,512,513
238832,0.238832,512,513
239248,0.239248,512,512
239664,0.239664,512,512
240172,0.240172,512,512
240580,0.24058,512,515
241000,0.241,512,513
241416,0.241416,512,511
241832,0.241832,512,513
242248,0.242248,512,511
242748,0.242748,512,512
243164,0.243164,512,513
243580,0.24358,512,513
243996,0.243996,512,513
244412,0.244412,512,513
244832,0.244832,512,512
245332,0.245332,512,512
245748,0.245748,512,512
246164,0.246164,512,512
246580,0.24658,512,513
246996,0.246996,512,513
247412,0.247412,512,513
247912,0.247912,512,512
248332,0.248332,512,513
248748,0.248748,512,513
249164,0.249164,512,513
249580,0.24958,512,513
249996,0.249996,512,513
250496,0.250496,512,512
250912,0.250912,512,512
251328,0.251328,512,512
251744,0.251744,512,512
252164,0.252164,512,515
252580,0.25258,512,512
253092,0.253092,512,515
253496,0.253496,512,512
253912,0.253912,512,512
254328,0.254328,512,511
254744,0.254744,512,511
255160,0.25516,512,511
255684,0.255684,512,511
256080,0.25608,512,510
256496,0.256496,512,510
256912,0.256912,512,510
257328,0.257328,512,511
257744,0.257744,512,511
258264,0.258264,512,511
258660,0.25866,512,511
259076,0.259076,512,515
259492,0.259492,512,511
259912,0.259912,512,510
260328,0.260328,512,512
260848,0.260848,512,510
261244,0.261244,512,513
261660,0.26166,512,512
262076,0.262076,512,512
262492,0.262492,512,512
262908,0.262908,512,512
263428,0.263428,512,513
263824,0.263824,512,513
264244,0.264244,512,513
264660,0.26466,512,513
265076,0.265076,512,513
265492,0.265492,512,513
266000,0.266,512,512
266408,0.266408,512,513
266824,0.266824,512,511
267240,0.26724,512,512
267660,0.26766,512,512
268076,0.268076,512,512
268576,0.268576,512,512
268992,0.268992,512,512
269408,0.269408,512,512
269824,0.269824,512,513
270240,0.27024,512,513
270656,0.270656,512,512
271156,0.271156,512,512
271572,0.271572,512,512
271992,0.271992,512,513
272408,0.272408,512,513
272824,0.272824,512,513
273240,0.27324,512,513
273740,0.27374,512,512
274156,0.274156,512,512
274572,0.274572,512,512
274988,0.274988,512,512
275408,0.275408,512,512
275824,0.275824,512,513
276324,0.276324,512,512
276740,0.27674,512,515
277156,0.277156,512,511
277572,0.277572,512,515
277988,0.277988,512,512
278404,0.278404,512,515
278920,0.27892,512,513
279320,0.27932,512,512
279740,0.27974,512,512
280160,0.28016,512,512
280572,0.280572,512,512
280988,0.280988,512,512
281496,0.281496,512,512
281904,0.281904,512,512
282320,0.28232,512,512
282736,0.282736,512,512
283156,0.283156,512,512
283572,0.283572,512,512
284072,0.284072,512,512
284488,0.284488,512,510
284904,0.284904,512,512
285320,0.28532,512,510
285736,0.285736,512,511
286152,0.286152,512,510
286656,0.286656,512,512
287068,0.287068,512,512
287488,0.287488,512,512
287904,0.287904,512,512
288320,0.28832,512,512
288736,0.288736,512,512
289236,0.289236,512,512
289652,0.289652,512,512
290068,0.290068,512,512
290484,0.290484,512,512
290904,0.290904,512,511
291320,0.29132,512,511
291832,0.291832,512,511
292236,0.292236,512,512
292652,0.292652,512,512
293068,0.293068,512,512
293484,0.293484,512,512
293900,0.2939,512,512
294412,0.294412,512,512
294820,0.29482,512,511
295236,0.295236,512,515
295652,0.295652,512,512
296068,0.296068,512,515
296484,0.296484,512,511
296996,0.296996,512,515
297400,0.2974,512,512
297816,0.297816,512,511
298232,0.298232,512,511
298652,0.298652,512,511
299068,0.299068,512,511
299584,0.299584,512,510
299984,0.299984,512,510
300400,0.3004,512,511
300816,0.300816,512,511
301232,0.301232,512,512
301652,0.301652,512,512
302156,0.302156,512,512
302568,0.302568,512,512
302984,0.302984,512,510
303400,0.3034,512,511
303816,0.303816,512,510
304232,0.304232,512,512
304748,0.304748,512,510
305148,0.305148,512,512
305564,0.305564,512,512
305980,0.30598,512,512
306400,0.3064,512,513
306816,0.306816,512,513
307336,0.307336,512,513
307732,0.307732,512,513
308148,0.308148,512,513
308564,0.308564,512,512
308980,0.30898,512,513
309396,0.309396,512,512
309908,0.309908,512,512
310316,0.310316,512,513
310732,0.310732,512,513
311148,0.311148,512,513
311564,0.311564,512,512
311980,0.31198,512,513
312492,0.312492,512,513
312896,0.312896,512,513
313312,0.313312,512,512
313732,0.313732,512,515
314148,0.314148,512,510
314564,0.314564,512,515
315084,0.315084,512,510
315480,0.31548,512,512
315896,0.315896,512,512
316312,0.316312,512,512
316728,0.316728,512,513
317144,0.317144,512,513
317668,0.317668,512,513
318064,0.318064,512,513
318480,0.31848,512,513
318896,0.318896,512,513
319312,0.319312,512,513
319728,0.319728,512,513
320236,0.320236,512,512
320644,0.320644,512,515
321060,0.32106,512,511
321480,0.32148,512,511
321896,0.321896,512,513
322312,0.322312,512,511
322812,0.322812,512,512
323228,0.323228,512,512
323644,0.323644,512,512
324060,0.32406,512,513
324476,0.324476,512,513
324892,0.324892,512,513
325396,0.325396,512,512
325812,0.325812,512,512
326228,0.326228,512,512
326644,0.326644,512,512
327060,0.32706,512,512
327476,0.327476,512,513
327988,0.327988,512,513
328392,0.328392,512,511
328808,0.328808,512,512
329228,0.329228,512,512
329644,0.329644,512,512
330060,0.33006,512,512
330568,0.330568,512,512
330976,0.330976,512,512
331392,0.331392,512,511
331808,0.331808,512,511
332224,0.332224,512,511
332640,0.33264,512,511
333156,0.333156,512,514
333560,0.33356,512,512
333976,0.333976,512,511
334392,0.334392,512,511
334808,0.334808,512,510
335224,0.335224,512,510
335740,0.33574,512,510
336140,0.33614,512,511
336556,0.336556,512,511
336976,0.336976,512,511
337392,0.337392,512,511
337808,0.337808,512,511
338312,0.338312,512,512
338724,0.338724,512,511
339140,0.33914,512,515
339556,0.339556,512,511
339972,0.339972,512,515
340392,0.340392,512,512
340908,0.340908,512,510
341308,0.341308,512,512
341724,0.341724,512,512
342140,0.34214,512,513
342556,0.342556,512,513
342972,0.342972,512,512
343492,0.343492,512,513
343888,0.343888,512,513
344304,0.344304,512,513
344724,0.344724,512,513
345140,0.34514,512,513
345556,0.345556,512,513
346064,0.346064,512,512
346472,0.346472,512,512
346888,0.346888,512,511
347304,0.347304,512,513
347720,0.34772,512,511
348140,0.34814,512,512
348640,0.34864,512,512
349056,0.349056,512,512
349472,0.349472,512,512
349888,0.349888,512,512
350304,0.350304,512,512
350720,0.35072,512,512
351232,0.351232,512,513
351636,0.351636,512,512
352052,0.352052,512,512
352472,0.352472,512,512
352888,0.352888,512,512
353304,0.353304,512,512
353812,0.353812,512,512
354220,0.35422,512,512
354636,0.354636,512,511
355052,0.355052,512,511
355468,0.355468,512,511
355888,0.355888,512,511
356388,0.356388,512,512
356804,0.356804,512,515
357220,0.35722,512,511
357636,0.357636,512,514
358052,0.358052,512,510
358468,0.358468,512,515
358980,0.35898,512,511
359384,0.359384,512,512
359804,0.359804,512,512
360220,0.36022,512,511
360636,0.360636,512,512
361056,0.361056,512,512
361560,0.36156,512,512
361968,0.361968,512,512
362384,0.362384,512,512
362800,0.3628,512,512
363216,0.363216,512,512
363636,0.363636,512,512
364136,0.364136,512,512
364552,0.364552,512,511
364968,0.364968,512,512
365384,0.365384,512,511
365800,0.3658,512,512
